time,speed,target_speed,throttle,brake,steer,energy,curvature,distance_traveled
0,0.23337297,12.0,1.0,0.0,0.026650478357822593,1.0,0.0,0.0
1,0.23370557,11.99999713897705,1.0,0.0,0.013326213969135602,1.0,5.300556426312513e-09,0.0
2,0.20143491,11.999711036682129,1.0,0.0,0.008883797793195272,1.0,4.821359950984723e-07,0.0
3,0.16076562,11.999711036682129,1.0,0.0,0.008883797793195272,1.0,4.821359950984723e-07,0.0
4,0.12242103,11.999711036682129,1.0,0.0,0.008883797793195272,1.0,4.821359950984723e-07,0.0
5,0.09030922,11.999711036682129,1.0,0.0,0.008883797793195272,1.0,4.821359950984723e-07,0.0
6,0.065111905,11.999711036682129,1.0,0.0,0.008883797793195272,1.0,4.821359950984723e-07,0.0
7,0.04613764,11.999711036682129,1.0,0.0,0.008883797793195272,1.0,4.821359950984723e-07,0.0
8,0.032249365,11.999711036682129,1.0,0.0,0.008883797793195272,1.0,4.821359950984723e-07,0.0
9,0.40498483,11.999711036682129,1.0,0.0,0.008833579210921507,1.0,4.821359950984723e-07,0.0068056006044086015
10,1.2719083,11.999711036682129,1.0,0.0,0.008468876613932988,1.0,4.821359950984723e-07,0.053811639089511705
11,1.957658,11.999711036682129,1.0,0.0,0.007874631178999949,1.0,4.821359950984723e-07,0.13861476651490703
12,2.5283062,11.999711036682129,1.0,0.0,0.007133523359833336,1.0,4.821359950984723e-07,0.2542873012703823
13,2.9975772,11.999711036682129,1.0,0.0,0.006318569164888053,1.0,4.821359950984723e-07,0.395091799772241
14,3.4146686,11.999711036682129,1.0,0.0,0.005477964878516718,1.0,4.821359950984723e-07,0.55766355014683
15,3.7996907,11.999711036682129,1.0,0.0,0.004654865122370316,1.0,4.821359950984723e-07,0.7400417244752235
16,4.1662827,11.999711036682129,1.0,0.0,0.003876488699347787,1.0,4.821359950984723e-07,0.9410589868895876
17,4.521902,11.999713897705078,1.0,0.0,0.0006029471618672174,1.0,4.7683452917880525e-07,1.1600515276855248
18,4.8708158,11.999713897705078,1.0,0.0,0.00020851103242417753,1.0,4.7683452917880525e-07,1.3966061642647396
19,5.2163477,11.999713897705078,1.0,0.0,7.31584045077257e-05,1.0,4.7683452917880525e-07,1.6504943083716204
20,5.507215,11.999713897705078,1.0,0.0,2.6832874208103318e-05,1.0,4.7683452917880525e-07,1.9207322347943296
21,5.5689745,11.999713897705078,1.0,0.0,6.509817171733742e-06,1.0,4.7683452917880525e-07,2.197043177120415
22,5.7828026,11.999713897705078,1.0,0.0,-4.947842344369678e-06,1.0,4.7683452917880525e-07,2.481654981616974
23,6.013988,11.999713897705078,1.0,0.0,-2.2926817492600747e-05,1.0,4.7683452917880525e-07,2.777573712431784
24,6.336365,8.337728500366211,0.0,0.9829990863800049,-0.012709398790062557,0.09829990863800049,0.008784819420898917,3.0877826014224365
25,6.5918694,8.337728500366211,1.0,0.0,-0.01154096081964723,1.0,0.008784819420898917,3.4127967765147447
26,6.8952236,8.337728500366211,1.0,0.0,-0.009429694547367074,1.0,0.008784819420898917,3.751175858874707
27,7.099447,8.337728500366211,1.0,0.0,-0.006958876616436421,1.0,0.008784819420898917,4.101593953479194
28,7.406439,8.337728500366211,1.0,0.0,-0.004535495956043734,1.0,0.008784819420898917,4.465508545437511
29,7.707044,8.337728500366211,1.0,0.0,-0.0027556769339975805,1.0,0.008784819420898917,4.844758337842066
30,8.079278,3.1237235069274902,0.0,1.0,-0.08943462487837224,0.1,0.05683138582493251,5.2412964286968995
31,8.361952,3.1237235069274902,0.0,1.0,-0.08505738043592669,0.1,0.05683138582493251,5.654195209077035
32,8.516663,3.1237235069274902,0.0,1.0,-0.0689001287904045,0.1,0.05683138582493251,6.077510488074314
33,8.486667,3.1237235069274902,0.0,1.0,-0.049784053440294206,0.1,0.05683138582493251,6.50279514589846
34,8.392068,3.1237235069274902,0.0,1.0,-0.032101582618501004,0.1,0.05683138582493251,6.9243510394522545
35,8.19902,3.0,0.0,1.0,-0.16333933166689094,0.1,0.06410360535692596,7.338209971478237
36,7.9915843,3.0,0.0,1.0,-0.1523051230713087,0.1,0.06410360535692596,7.742070992362363
37,7.715032,3.0,0.0,1.0,-0.12790602560344705,0.1,0.06410360535692596,8.133161414977026
38,7.485162,3.0,0.0,1.0,-0.09830248848144943,0.1,0.06410360535692596,8.511718487418245
39,7.195544,3.0,0.0,1.0,-0.07022665653673406,0.1,0.06410360535692596,8.877081852559352
40,6.9609137,3.0,0.0,1.0,-0.046649919137464774,0.1,0.06410360535692596,9.229647666623277
41,6.6619334,3.0,0.0,1.0,-0.2131306449999784,0.1,0.06410285688652373,9.568619392667012
42,6.404133,3.0,0.0,1.0,-0.19982227019758378,0.1,0.06410285688652373,9.894015140110149
43,5.7793736,3.0,0.0,1.0,-0.17249799387921805,0.1,0.06410285688652373,10.199952094917272
44,4.4417458,3.0,0.5706198811531067,0.0,-0.14536327441553387,0.3256070487671856,0.06410285688652373,10.44810525370283
45,3.0979962,3.0,1.0,0.0,-0.12605794241901133,1.0,0.06410285688652373,10.629346401397655
46,1.7618576,3.0,1.0,0.0,-0.11472575286006947,1.0,0.06410285688652373,10.743737710062973
47,2.0183241,3.0,1.0,0.0,-0.10634022504722304,1.0,0.06410285688652373,10.838494670835752
48,2.3260498,3.0,1.0,0.0,-0.09711190933606755,1.0,0.06410285688652373,10.94849969468671
49,2.6838646,3.0,0.6486179828643799,0.0,-0.08742069849102181,0.420705287695057,0.06410285688652373,11.075756337175893
50,3.0195825,3.0,0.3348989486694336,0.0,-0.07742137570853276,0.11215730581989192,0.06410285688652373,11.220435829909414
51,3.287682,3.0,0.13297933340072632,0.0,-0.06751309972167656,0.017683503111701526,0.06410285688652373,11.380063460768728
52,3.4397867,3.0,0.09467071294784546,0.0,-0.05826127453017322,0.008962543890053354,0.06410285688652373,11.549498019527203
53,3.5171053,3.0,0.08955252170562744,0.0,-0.2602338194119855,0.008019654143836874,0.06410491602633026,11.724080412273711
54,3.5244203,3.0,0.14961928129196167,0.0,-0.2510407746764712,0.02238592933432315,0.06410491602633026,11.900251570390934
55,3.504242,3.0,0.19476956129074097,0.0,-0.22721830576337104,0.0379351820053877,0.06410491602633026,12.075369665121153
56,3.498484,3.0,0.18361490964889526,0.0,-0.19875391939850104,0.03371443504537197,0.06410491602633026,12.249840739750699
57,3.5022247,3.0,0.16786420345306396,0.0,-0.17208446655895887,0.028178390800931652,0.06410491602633026,12.424388310879168
58,3.4974043,3.0,0.1787586212158203,0.0,-0.14850600787526946,0.031954644658981124,0.06410491602633026,12.598991744915566
59,3.4965677,3.0,0.1731286644935608,0.0,-0.1278841744349596,0.029973534469323937,0.06410491602633026,12.773535158490754
60,3.4880583,3.0,0.1868705153465271,0.0,-0.11003063299724347,0.03492058950587662,0.06410491602633026,12.947890392602492
61,3.486342,3.0,0.17936217784881592,0.0,-0.09454884193322913,0.03217079084267027,0.06410491602633026,13.122065996219721
62,3.4780817,3.0,0.19177591800689697,0.0,-0.08120510866963741,0.03677800272738807,0.06410491602633026,13.296017835033652
63,3.4775915,3.0,0.1821081042289734,0.0,-0.06966513661078018,0.033163361625870635,0.06410491602633026,13.469806513869038
64,3.4704366,3.0,0.19357556104660034,0.0,-0.05974462455024476,0.037471497834506096,0.06410491602633026,13.6434100283656
65,3.4710672,3.0,0.18280404806137085,0.0,-0.2824559996456154,0.033417319987623983,0.06410088153663633,13.816903281992696
66,3.4514601,3.0,0.22039151191711426,0.0,-0.2737064047889298,0.048572418525111516,0.06410088153663633,13.989817954385186
67,3.4261267,3.0,0.2493206262588501,0.0,-0.24995688193245816,0.06216077467810521,0.06410088153663633,14.16110921341143
68,3.4290123,3.0,0.2160710096359253,0.0,-0.21985496959952675,0.04668668120508812,0.06410088153663633,14.331827077172216
69,3.4466584,3.0,0.1814311146736145,0.0,-0.19112852671647126,0.032917249371710255,0.06410088153663633,14.503270981718913
70,3.454303,3.0,0.1815163493156433,0.0,-0.16548251612975376,0.032948185068878644,0.06410088153663633,14.675416054170588
71,3.4623733,3.0,0.17070871591567993,0.0,-0.14289674724705234,0.029141465689580315,0.06410088153663633,14.848060215448385
72,3.4593546,3.0,0.18251937627792358,0.0,-0.12324003661618166,0.033313322716882254,0.06410088153663633,15.020836460173108
73,3.4604652,3.0,0.1749773621559143,0.0,-0.10612679994108713,0.030617077267041992,0.06410088153663633,15.193649293836462
74,3.4533308,3.0,0.18809014558792114,0.0,-0.09133268804214292,0.03537790286728537,0.06410088153663633,15.366321378780393
75,3.4530263,3.0,0.17929953336715698,0.0,-0.07850514389742867,0.03214832266568024,0.06410088153663633,15.538858774693837
76,3.4455962,3.0,0.19162720441818237,0.0,-0.06744985303768358,0.036720985473127854,0.06410088153663633,15.711202730671602
77,3.445894,3.0,0.18137210607528687,0.0,-0.05788916362798373,0.03289584086218511,0.06410088153663633,15.883424089583777
78,3.4391136,3.0,0.19303512573242188,0.0,-0.28683184149841884,0.03726255976653192,0.060038222966686317,16.055476033282968
79,3.4258769,3.0,0.210598886013031,0.0,-0.2785859487700938,0.04435189078992963,0.060038222966686317,16.226997579142253
80,3.395249,3.0,0.25664180517196655,0.0,-0.2553826390558278,0.06586501616192564,0.060038222966686317,16.396886265030183
81,3.4026017,3.0,0.20929521322250366,0.0,-0.2250124695565264,0.04380448627785327,0.060038222966686317,16.566146451459446
82,3.4145908,3.0,0.1905968189239502,0.0,-0.1959968416584614,0.03632714738392906,0.060038222966686317,16.736080652794566
83,3.4290771,3.0,0.17146795988082886,0.0,-0.1698943413215088,0.029401261265693535,0.060038222966686317,16.906805276376623
84,3.431193,3.0,0.17956632375717163,0.0,-0.14696672109716963,0.03224406462766538,0.060038222966686317,17.077991121026805
85,3.435292,3.0,0.17130804061889648,0.0,-0.12688950310503425,0.029346444780685488,0.060038222966686317,17.249410923794784
86,3.4296966,3.0,0.18444937467575073,0.0,-0.109459279107773,0.034021571818275476,0.060038222966686317,17.42081948977826
87,3.4298499,3.0,0.17639803886413574,0.0,-0.09429655445351416,0.031116268115113144,0.060038222966686317,17.592158654278368
88,3.4223793,3.0,0.18938064575195312,0.0,-0.08118719432463331,0.03586502898542676,0.060038222966686317,17.763301594622366
89,3.4224155,3.0,0.1797255277633667,0.0,-0.06982730193164888,0.032301265329820694,0.060038222966686317,17.934346824631238
90,3.4153256,3.8098690509796143,1.0,0.0,-0.2848969260318914,1.0,0.04299428959240988,18.105196996542674
91,3.4118679,3.8098690509796143,1.0,0.0,-0.2748175718796272,1.0,0.04299428959240988,18.275697263487547
92,3.4433548,3.8098690509796143,0.9429997801780701,0.0,-0.24994154085753892,0.8892485854158885,0.04299428959240988,18.446413971396016
93,3.5945857,3.8098690509796143,0.673101544380188,0.0,-0.21861947162630677,0.4530656890469942,0.04299428959240988,18.622060416849656
94,3.806723,3.8098690509796143,0.40007317066192627,0.0,-0.1878800848456857,0.16005854188348678,0.04299428959240988,18.80760309034126
95,3.9990244,3.8098690509796143,0.22666233777999878,0.0,-0.15935303530825723,0.05137581536789426,0.04299428959240988,19.00353644689435
96,4.1239524,3.8098690509796143,0.1675371527671814,0.0,-0.13378507590332855,0.028068697557333877,0.04299428959240988,19.207177650585983
97,4.1903677,3.8098690509796143,0.1577320694923401,0.0,-0.11152650609703321,0.024879405746336403,0.04299428959240988,19.415297719725558
98,4.2147675,3.8098690509796143,0.17332333326339722,0.0,-0.09255574042330597,0.030040977853534656,0.04299428959240988,19.625454942992093
99,4.2202187,3.8098690509796143,0.18476897478103638,0.0,-0.07658415993843394,0.03413957404163526,0.04299428959240988,19.836245815662892
100,4.2141814,3.8098690509796143,0.20027309656143188,0.0,-0.063244974346293,0.04010931320630462,0.04299428959240988,20.046972710592076
101,4.206296,3.2176880836486816,0.0,0.9792981743812561,-0.2826122366679911,0.09792981743812562,0.05458771160540668,20.257351579893633
102,4.1388326,3.2176880836486816,0.0,0.2646816372871399,-0.27208510318060614,0.02646816372871399,0.05458771160540668,20.465897795622574
103,4.014961,3.2176880836486816,0.0,0.08838778734207153,-0.2448299812676126,0.008838778734207154,0.05458771160540668,20.668557171569244
104,3.929813,3.2176880836486816,0.0,0.0455244779586792,-0.21100793467368817,0.0045524477958679204,0.05458771160540668,20.86597710885
105,3.8577528,3.2176880836486816,0.010247528553009033,0.0,-0.1796682224765902,0.00010501184144473541,0.05458771160540668,21.05973035226037
106,3.7869,3.2176880836486816,0.07704687118530273,0.0,-0.15257149496473615,0.005936220359444633,0.05458771160540668,21.25002209736708
107,3.7219543,3.2176880836486816,0.13356417417526245,0.0,-0.12959853587942796,0.017839388623119845,0.05458771160540668,21.437058825090716
108,3.6684833,3.2176880836486816,0.17330670356750488,0.0,-0.1101957753362349,0.03003521350143501,0.05458771160540668,21.621251711800603
109,3.6310103,3.2176880836486816,0.19271492958068848,0.0,-0.09382422292258605,0.03713904408328972,0.05458771160540668,21.803332086142785
110,3.606405,3.2176880836486816,0.20250892639160156,0.0,-0.07992119001669573,0.0410098652682791,0.05458771160540668,21.983986454130214
111,3.5926006,3.2176880836486816,0.2036380171775818,0.0,-0.06811255078326679,0.041468442040017095,0.05458771160540668,22.16379585126342
112,3.5851483,3.217763900756836,0.20305275917053223,0.0,-0.28959648162752066,0.04123042300676616,0.054585960752088575,22.343125245928093
113,3.5672934,3.217763900756836,0.229486882686615,0.0,-0.2795694999884882,0.05266422932522019,0.054585960752088575,22.52178574370653
114,3.5394826,3.217763900756836,0.26564496755599976,0.0,-0.25422987949186066,0.07056724878782816,0.054585960752088575,22.698760409489374
115,3.548255,3.217763900756836,0.21863698959350586,0.0,-0.22252780824358068,0.04780213321851079,0.054585960752088575,22.875287017499353
116,3.5648606,3.217763900756836,0.19246262311935425,0.0,-0.1925152700525289,0.03704186129798259,0.054585960752088575,23.05264272815349
117,3.5780156,3.217763900756836,0.18095701932907104,0.0,-0.16576086114145033,0.03274544284446179,0.054585960752088575,23.230853489368947
118,3.5835865,3.217763900756836,0.18114113807678223,0.0,-0.14233341706320282,0.032812111903751884,0.054585960752088575,23.409589484071407
119,3.5850797,3.217763900756836,0.18188899755477905,0.0,-0.1220091096736943,0.03308360743148242,0.054585960752088575,23.58857488661066
120,3.5828598,3.217763900756836,0.18599659204483032,0.0,-0.1044189436985974,0.03459473225229104,0.054585960752088575,23.767571457809293
121,3.5799513,3.217763900756836,0.18778270483016968,0.0,-0.08928375861054873,0.03526234423333463,0.054585960752088575,23.946490738433155
122,3.5761125,3.217763900756836,0.19076001644134521,0.0,-0.07624753956812375,0.0363893838727023,0.054585960752088575,24.125268699088664
123,3.57293,3.217763900756836,0.19151020050048828,0.0,-0.06507410726735721,0.03667615689573722,0.054585960752088575,24.303896517961903
124,3.5697055,3.217566728591919,0.19262200593948364,0.0,-0.2901967189602298,0.03710323717215047,0.054590525620902865,24.482390895101684
125,3.5527105,3.217566728591919,0.22190874814987183,0.0,-0.28071838099335283,0.04924349250544324,0.054590525620902865,24.66030256562784
126,3.5234127,3.217566728591919,0.26198023557662964,0.0,-0.25586198788928105,0.06863364383278636,0.054590525620902865,24.836521485278787
127,3.530241,3.217566728591919,0.2174624800682068,0.0,-0.22423659148427794,0.047289930237415234,0.054590525620902865,25.01215910494553
128,3.5456884,3.217566728591919,0.19175541400909424,0.0,-0.1941833215796464,0.036770138801799135,0.054590525620902865,25.188554866667243
129,3.5581813,3.217566728591919,0.1805139183998108,0.0,-0.16736314216557086,0.03258527473605355,0.054590525620902865,25.36576865241206
130,3.5634246,3.217566728591919,0.18079090118408203,0.0,-0.14385774869642778,0.032685349950952514,0.054590525620902865,25.54350726489973
131,3.5647995,3.217566728591919,0.1815481185913086,0.0,-0.12344499972687734,0.03295971936404385,0.054590525620902865,25.721460170116774
132,3.5625944,3.217566728591919,0.18560820817947388,0.0,-0.10575977864196541,0.03445040694359491,0.054590525620902865,25.899435623271295
133,3.5597622,3.217566728591919,0.18735641241073608,0.0,-0.09052445369007908,0.03510242527142182,0.054590525620902865,26.077336490546706
134,3.5560296,3.217566728591919,0.19029730558395386,0.0,-0.07738054733410799,0.036213064512512716,0.054590525620902865,26.2550959348289
135,3.5529625,3.217566728591919,0.19102168083190918,0.0,-0.06611526869698221,0.03648928254784778,0.054590525620902865,26.432724935897525
136,3.5498497,3.2178077697753906,0.19300216436386108,0.0,-0.2929466802597659,0.03724983544913485,0.05458494294857413,26.61021390061526
137,3.5330338,3.2178077697753906,0.22170394659042358,0.0,-0.2834405470215829,0.04915263993376939,0.05458494294857413,26.787136748520442
138,3.5037236,3.2178077697753906,0.2620789408683777,0.0,-0.2585847992743512,0.06868537124669061,0.05458494294857413,26.96236924117414
139,3.5106094,3.2178077697753906,0.21753323078155518,0.0,-0.2268441641067726,0.047320706494261344,0.05458494294857413,27.137016609102126
140,3.5263464,3.2178077697753906,0.1914021372795105,0.0,-0.1966322326552807,0.03663477815516458,0.05458494294857413,27.31243611659991
141,3.5391343,3.2178077697753906,0.17995691299438477,0.0,-0.16964942927046095,0.03238449053446857,0.05458494294857413,27.488696274656792
142,3.544615,3.2178077697753906,0.18014919757843018,0.0,-0.1459703133118158,0.03245373338815227,0.05458494294857413,27.665478150852948
143,3.5461612,3.2178077697753906,0.18089592456817627,0.0,-0.12538444312449865,0.03272333552537532,0.05458494294857413,27.842500676702592
144,3.544075,3.2178077697753906,0.1849830150604248,0.0,-0.10753089338271413,0.03421871586084535,0.05458494294857413,28.019547988864172
145,3.5413308,3.2178077697753906,0.18676763772964478,0.0,-0.09213645562581525,0.03488215050311183,0.05458494294857413,28.19651982330638
146,3.5376687,3.2178077697753906,0.1897483468055725,0.0,-0.07883601138380532,0.03600443511544782,0.05458494294857413,28.37335993314235
147,3.5346656,3.418781280517578,0.5934600830078125,0.0,-0.28525488629867957,0.3521948701236397,0.05020045464871405,28.55006665563754
148,3.5279725,3.418781280517578,0.40232372283935547,0.0,-0.2735596633283926,0.16186437795931852,0.05020045464871405,28.72638054129005
149,3.5450096,3.418781280517578,0.3609251379966736,0.0,-0.24711986941833838,0.13026695523791787,0.05020045464871405,28.902601633436912
150,3.6000967,3.418781280517578,0.2668815851211548,0.0,-0.21563103404584968,0.07122578047678019,0.05020045464871405,29.08083048193038
151,3.6562932,3.418781280517578,0.20838820934295654,0.0,-0.1859221178373686,0.04342564579316388,0.05020045464871405,29.262040994501074
152,3.6948571,3.418781280517578,0.1860763430595398,0.0,-0.15933918169886516,0.034624405446411544,0.05020045464871405,29.44565402864245
153,3.7173529,3.418781280517578,0.17815589904785156,0.0,-0.13603846944975298,0.03173952436554828,0.05020045464871405,29.630801472541926
154,3.726284,3.418781280517578,0.18125182390213013,0.0,-0.11581839858898245,0.03285222366784879,0.05020045464871405,29.816719897000606
155,3.728262,3.418781280517578,0.18467974662780762,0.0,-0.09842494534550758,0.03410660881451122,0.05020045464871405,30.002923584686418
156,3.7255569,3.418781280517578,0.19053396582603455,0.0,-0.08350155337265933,0.0363031921333965,0.05020045464871405,30.18912428434123
157,3.7219248,3.418781280517578,0.19357728958129883,0.0,-0.07078179819645515,0.037472167041642024,0.05020045464871405,30.375190585126653
158,3.7176223,3.418781280517578,0.19705602526664734,0.0,-0.05991993216387204,0.038831077093889554,0.05020045464871405,30.561081698937965
159,3.7142057,8.016326904296875,1.0,0.0,-0.21363306590685488,1.0,0.009938898341212494,30.74679636016577
160,3.7084665,8.016326904296875,1.0,0.0,-0.20269033474242215,1.0,0.009938898341212494,30.932154272069383
161,3.7610035,8.016326904296875,1.0,0.0,-0.17939777089444447,1.0,0.009938898341212494,31.11841151395925
162,3.9177606,8.016326904296875,1.0,0.0,-0.15395572948343722,1.0,0.009938898341212494,31.310396234441082
163,4.159464,8.016326904296875,1.0,0.0,-0.12976492718027016,1.0,0.009938898341212494,31.513046863037406
164,4.442629,8.016326904296875,1.0,0.0,-0.10750095224132647,1.0,0.009938898341212494,31.729220244816304
