time,speed,target_speed,throttle,brake,steer,energy,curvature,distance_traveled
0,0.23337373,11.241949081420898,1.0,0.0,0.03340707748617391,1.0,0.0,0.0
1,0.23370573,11.24014663696289,1.0,0.0,0.016705148556477548,1.0,4.7153312392204405e-07,0.0
2,0.20143506,11.24014663696289,1.0,0.0,0.011136613899426252,1.0,4.688842175088821e-07,0.0
3,0.16076462,11.24014663696289,1.0,0.0,0.011136613899426252,1.0,4.688842175088821e-07,0.0
4,0.12242149,11.24014663696289,1.0,0.0,0.011136613899426252,1.0,4.688842175088821e-07,0.0
5,0.09031132,11.24014663696289,1.0,0.0,0.011136613899426252,1.0,4.688842175088821e-07,0.0
6,0.06511303,11.24014663696289,1.0,0.0,0.011136613899426252,1.0,4.688842175088821e-07,0.0
7,0.04613652,11.24014663696289,1.0,0.0,0.011136613899426252,1.0,4.688842175088821e-07,0.0
8,0.03224963,11.24014663696289,1.0,0.0,0.011136613899426252,1.0,4.688842175088821e-07,0.0
9,0.404914,11.24014663696289,1.0,0.0,0.011070429784551953,1.0,4.688842175088821e-07,0.006798047672036291
10,1.2732292,11.238581657409668,1.0,0.0,0.010613398010364001,1.0,4.688842175088821e-07,0.05383506924654805
11,1.9584001,11.235718727111816,1.0,0.0,0.009870211478660993,1.0,4.688842175088821e-07,0.13869242232291895
12,2.528722,11.270864486694336,1.0,0.0,0.008940370906007885,1.0,4.688842175088821e-07,0.25438899408982474
13,2.997854,11.272587776184082,1.0,0.0,0.007919217892208114,1.0,4.688842175088821e-07,0.395217765339023
14,3.414825,11.23949909210205,1.0,0.0,0.0068670839395448295,1.0,4.688842175088821e-07,0.5578139681711449
15,3.7997859,11.237770080566406,1.0,0.0,0.00583419402037521,1.0,4.688842175088821e-07,0.740193952392161
16,4.166342,11.268902778625488,1.0,0.0,0.0048589470205196265,1.0,4.688842175088821e-07,0.9411978618470305
17,4.5219407,11.278219223022461,1.0,0.0,0.0007571070656838378,1.0,4.741856227690696e-07,1.1601924156507726
18,4.870838,11.260880470275879,1.0,0.0,0.00026181298789434374,1.0,4.741856227690696e-07,1.396748732928055
19,5.2163625,11.26944351196289,1.0,0.0,9.450025122736489e-05,1.0,4.741856227690696e-07,1.650638278069378
20,5.5071654,11.26763916015625,1.0,0.0,3.448316750750855e-05,1.0,4.741856227690696e-07,1.9208928426104168
21,5.5689406,11.26763916015625,1.0,0.0,1.0238494128038843e-05,1.0,4.741856227690696e-07,2.1971898923507505
22,5.7827873,11.264640808105469,1.0,0.0,-5.449504168495455e-06,1.0,4.741856227690696e-07,2.4818107065026305
23,6.013995,11.264640808105469,1.0,0.0,-2.834376915857089e-05,1.0,4.741856227690696e-07,2.7777155898895174
24,6.3374033,11.2621431350708,1.0,0.0,-0.002134003551486804,1.0,4.7683452917880525e-07,3.0879488946953932
25,6.637794,11.232418060302734,1.0,0.0,-0.0018191408759021652,1.0,4.7683452917880525e-07,3.414012739712279
26,7.0501847,11.23541259765625,1.0,0.0,-0.0019337958734661727,1.0,4.7683452917880525e-07,3.75914134348528
27,7.378522,11.235883712768555,1.0,0.0,-0.0015622877742368136,1.0,4.7683452917880525e-07,4.121337148105999
28,7.7791715,11.234201431274414,1.0,0.0,-0.0007946522142554826,1.0,4.7683452917880525e-07,4.502362633000102
29,8.132173,11.210681915283203,1.0,0.0,-0.0005288753737690816,1.0,4.7683452917880525e-07,4.901896888325618
30,8.530895,11.205544471740723,1.0,0.0,-0.001983507551499865,1.0,4.7683452917880525e-07,5.320508732942288
31,8.890444,11.205544471740723,1.0,0.0,-0.0016079647309835763,1.0,4.7683452917880525e-07,5.757804696882751
32,9.300319,11.201114654541016,1.0,0.0,-0.0011273328617785183,1.0,4.7683452917880525e-07,6.214597118498791
33,9.693961,11.201114654541016,1.0,0.0,-0.0006710482000354013,1.0,4.7683452917880525e-07,6.691424204345169
34,10.081533,11.209924697875977,1.0,0.0,-0.001371000950405821,1.0,4.7683452917880525e-07,7.187885591527293
35,10.445685,11.231769561767578,1.0,0.0,-0.0010233441565826475,1.0,4.7683452917880525e-07,7.702924264484119
36,10.799751,11.231769561767578,1.0,0.0,-0.0006308182580925306,1.0,4.7683452917880525e-07,8.235880291567693
37,11.144391,11.212602615356445,0.7044048309326172,0.0,-0.0002919640426192001,0.496186165841209,4.7683452917880525e-07,8.786231260384767
38,11.464823,11.23817253112793,0.4773547053337097,0.0,-0.0007842901973194974,0.22786751470423283,4.7683452917880525e-07,9.353275315711343
39,11.712355,11.240800857543945,0.28005164861679077,0.0,-0.0005773501446844028,0.07842892589298245,4.7683452917880525e-07,9.934280964128366
40,11.862841,11.237504959106445,0.21426469087600708,0.0,-0.0003451955760973056,0.04590935775619087,4.7683452917880525e-07,10.524777357719714
41,11.916886,11.240382194519043,0.2623271942138672,0.0,-0.0006224981964748933,0.06881555682412,4.7683452917880525e-07,11.119801645737503
42,11.906681,11.240800857543945,0.3314141631126404,0.0,-0.0004463703477357893,0.1098353475116518,4.7683452917880525e-07,11.71540933114887
43,11.867547,11.237656593322754,0.389620304107666,0.0,-0.000244319695555835,0.15180398137295015,4.7683452917880525e-07,12.309536696417785
44,11.825173,11.213179588317871,0.3863639235496521,0.0,-0.00015237137622906935,0.1492770814206814,4.7683452917880525e-07,12.901535259035798
45,11.780407,11.240382194519043,0.5097051858901978,0.0,-0.0002333213035265701,0.25979937652336105,4.7683452917880525e-07,13.491382376667028
46,11.748702,11.240800857543945,0.4994437098503113,0.0,-0.00023517791505186971,0.24944401930904192,4.7683452917880525e-07,14.0792455969296
47,11.722672,11.208696365356445,0.45260047912597656,0.0,-0.00014088213821056476,0.20484719370506355,4.7683452917880525e-07,14.665842276371011
48,11.722218,11.240382194519043,0.5205476880073547,0.0,-0.000292067569863976,0.2709698954898023,4.7683452917880525e-07,15.251939135347413
49,11.711365,11.240800857543945,0.5085970759391785,0.0,-0.00022713250254352365,0.25867098565388247,4.7683452917880525e-07,15.837658233089755
50,11.729602,11.208696365356445,0.3940379023551941,0.0,-0.00014755176301398942,0.15526586849248147,4.7683452917880525e-07,16.423739648528855
51,11.727139,11.240382194519043,0.5102421641349792,0.0,-0.00020307708251205447,0.2603470660611471,4.7683452917880525e-07,17.01021009714347
52,11.736833,11.240382194519043,0.45422548055648804,0.0,-0.00013647966129609797,0.2063207871867725,4.7683452917880525e-07,17.59681781088493
53,11.733146,11.240800857543945,0.46966803073883057,0.0,-7.307013854760225e-05,0.2205880590980911,4.7683452917880525e-07,18.183558987174667
54,11.746199,11.208696365356445,0.3725600242614746,0.0,-2.3574152813919482e-05,0.13880097167771055,4.7683452917880525e-07,18.77060148934536
55,11.734179,11.240382194519043,0.5026603937149048,0.0,-8.258613883423556e-05,0.2526674714096231,4.7683452917880525e-07,19.35761727189754
56,11.73403,11.240800857543945,0.4576231837272644,0.0,-5.883349326712216e-05,0.2094189782846776,4.7683452917880525e-07,19.944274424200373
57,11.722971,11.208696365356445,0.4123930335044861,0.0,-3.5212649981546824e-05,0.17006801408303218,4.7683452917880525e-07,20.53064545323651
58,11.726764,11.240382194519043,0.48679298162460327,0.0,-7.135112190558105e-05,0.23696740695897134,4.7683452917880525e-07,21.1169249023261
59,11.711937,11.240382194519043,0.4861956834793091,0.0,-5.253345734316716e-05,0.2363862426339125,4.7683452917880525e-07,21.70278089432117
60,11.722251,11.240800857543945,0.4491710066795349,0.0,-3.220515345214805e-05,0.2017545932415068,4.7683452917880525e-07,22.288667387366534
61,11.716378,11.208696365356445,0.4040643572807312,0.0,-1.580128828203541e-05,0.1632680048246904,4.7683452917880525e-07,22.87461872454561
62,11.722158,11.240382194519043,0.4796984791755676,0.0,-4.266108533998088e-05,0.2301106309233525,4.7683452917880525e-07,23.460650153716667
63,11.70724,11.240800857543945,0.4821346402168274,0.0,-3.185129742162644e-05,0.2324538112970096,4.7683452917880525e-07,24.046277204925744
64,11.71649,11.208696365356445,0.38155031204223633,0.0,-2.1240216927386244e-05,0.1455806406195279,4.7683452917880525e-07,24.63189662677099
65,11.703852,11.240382194519043,0.5092350244522095,0.0,-3.3024513847626505e-05,0.2593203101288424,4.7683452917880525e-07,25.217401575799435
66,11.705095,11.240800857543945,0.46093982458114624,0.0,-2.3392028038943226e-05,0.21246552188489787,4.7683452917880525e-07,25.80258227684832
67,11.695906,11.211813926696777,0.4197496771812439,0.0,-1.4992538228830635e-05,0.17618979149375846,4.7683452917880525e-07,26.38755317038178
68,11.702103,11.208696365356445,0.41845083236694336,0.0,-6.2857174676663385e-06,0.17510109910858773,4.7683452917880525e-07,26.972566003951563
69,11.684365,11.240382194519043,0.5243919491767883,0.0,-1.638546864471735e-05,0.27498691636143135,4.7683452917880525e-07,27.55715539709064
70,11.688087,11.240800857543945,0.4661251902580261,0.0,-1.0800215264425839e-05,0.21727269299308105,4.7683452917880525e-07,28.141420531551503
71,11.682659,11.208696365356445,0.41370660066604614,0.0,-7.040482859798423e-06,0.17115315143465537,4.7683452917880525e-07,28.725662788603596
72,11.691472,11.240382194519043,0.483873188495636,0.0,-1.3612203097297672e-05,0.23413326254493327,4.781598899715431e-07,29.310099589107534
73,11.680031,11.240800857543945,0.48252391815185547,0.0,-1.0589929390869814e-05,0.23282933158861852,4.781598899715431e-07,29.894299873968706
74,11.692288,11.211813926696777,0.3857726454734802,0.0,-8.949353192978892e-06,0.14882053399560746,4.781598899715431e-07,30.478652756806586
75,11.682053,11.240382194519043,0.5024169087409973,0.0,-1.1678919671916047e-05,0.2524227501888596,4.781598899715431e-07,31.063024697040852
76,11.685432,11.240382194519043,0.45462799072265625,0.0,-7.450261443276157e-06,0.20668660994851962,4.781598899715431e-07,31.64718299909754
77,11.676626,11.211813926696777,0.41615962982177734,0.0,-3.075197938695464e-06,0.17318883749339875,4.781598899715431e-07,32.23119252322755
78,11.68232,11.208696365356445,0.4159315228462219,0.0,-2.460979319572312e-06,0.17299903169717723,4.781598899715431e-07,32.81522493545255
79,11.663682,11.240382194519043,0.5232729911804199,0.0,-1.5640891482324676e-06,0.2738146232989038,1.3246748931139667e-09,33.3987995804709
80,11.66658,11.240800857543945,0.4658614993095398,0.0,-2.0393065612893977e-07,0.21702693653893235,1.3246748931139667e-09,33.98200420128669
81,11.660415,11.211813926696777,0.4204551577568054,0.0,5.84162124829816e-07,0.17678253968430013,1.3246748931139667e-09,34.565147787182646
82,11.669452,11.240382194519043,0.48019373416900635,0.0,-1.6577650460832937e-06,0.23058602233517433,4.781589766991218e-07,35.148474477838256
83,11.658812,11.240382194519043,0.4798505902290344,0.0,-2.4733900819197298e-06,0.2302565889431527,4.781589766991218e-07,35.73160281031654
84,11.671235,11.211813926696777,0.3849297761917114,0.0,-1.6683542416213685e-06,0.14817093259900105,4.781589766991218e-07,36.31490089085342
85,11.660769,11.211830139160156,0.444640576839447,0.0,-1.8350631121902186e-06,0.1977052425721162,4.781589766991218e-07,36.898210415437795
86,11.661065,11.240382194519043,0.48856812715530396,0.0,-3.1315941079339827e-06,0.23869881487204125,4.7683452917880525e-07,37.481249097565396
87,11.647589,11.240800857543945,0.48606789112091064,0.0,-3.3357328890252215e-06,0.23626199477872944,4.7683452917880525e-07,38.06386053525613
88,11.659521,11.208696365356445,0.38184499740600586,0.0,-4.138201921461808e-06,0.14580560204399262,4.7683452917880525e-07,38.64657688203066
89,11.64919,11.240382194519043,0.5078718066215515,0.0,-5.237365560293873e-06,0.2579337719610386,4.781598899715431e-07,39.22930848221902
90,11.652432,11.240382194519043,0.45730966329574585,0.0,-7.369333757408576e-06,0.20913212814366844,4.781598899715431e-07,39.81181502146009
91,11.644135,11.211813926696777,0.4178479313850403,0.0,-2.1765061524043635e-06,0.17459689376275733,4.781598899715431e-07,40.39419184025992
92,11.650836,11.210829734802246,0.42054980993270874,0.0,-2.2346749628171143e-07,0.17686214263443745,4.781598899715431e-07,40.976627786639355
93,11.633405,11.240382194519043,0.5202367901802063,0.0,2.7207957792167395e-06,0.270646317857004,4.781598899715431e-07,41.558661268137094
94,11.637773,11.211813926696777,0.405251145362854,0.0,4.406303686743464e-06,0.16422849081790503,4.781598899715431e-07,42.14040101907211
95,11.627739,11.211830139160156,0.456207275390625,0.0,6.201645425866348e-06,0.20812507811933756,4.781598899715431e-07,42.722032051552375
96,11.631581,11.240382194519043,0.4936208724975586,0.0,7.597113642012851e-06,0.243661565765251,4.7683452917880525e-07,43.303523842833705
97,11.622021,11.240800857543945,0.48696357011795044,0.0,4.589862206782524e-06,0.23713351862202003,4.7683452917880525e-07,43.88478294375944
98,11.637352,11.211813926696777,0.3862202763557434,0.0,1.7300288656767676e-06,0.1491661018683068,4.7683452917880525e-07,44.46632625973392
99,11.62966,11.23817253112793,0.49668294191360474,0.0,-2.6798287476757997e-06,0.24669394478795326,4.774967534126748e-07,45.04802979768536
100,11.6349125,11.240382194519043,0.45457297563552856,0.0,-2.895657348899433e-06,0.20663659017813885,4.774967534126748e-07,45.62963414327206
101,11.626794,11.211813926696777,0.41464197635650635,0.0,-3.250099718787101e-06,0.17192796855682957,4.774967534126748e-07,46.21113930711344
102,11.633228,11.211830139160156,0.42014819383621216,0.0,-2.1554731403162596e-06,0.1765245047838313,4.774967534126748e-07,46.79270358793692
103,11.615267,11.240382194519043,0.5177190899848938,0.0,-5.627397188784979e-08,0.26803305613478656,4.774967534126748e-07,47.37384061901952
104,11.619238,11.240800857543945,0.46220844984054565,0.0,9.35165606440948e-07,0.2136366511040002,4.774967534126748e-07,47.95466294408447
105,11.612939,11.211813926696777,0.41837942600250244,0.0,2.0887492943965388e-06,0.17504134410218342,4.774967534126748e-07,48.535435672980114
106,11.621753,11.23817253112793,0.47423887252807617,0.0,1.8871520560515583e-06,0.22490250821670088,4.761723039975118e-07,49.1163819646448
107,11.61022,11.240382194519043,0.4823298454284668,0.0,3.5467675082353616e-06,0.23264207979104867,4.761723039975118e-07,49.697103190035236
108,11.622039,11.211813926696777,0.38576191663742065,0.0,3.562007471315696e-06,0.14881225632777628,4.761723039975118e-07,50.27794839789988
109,11.611452,11.211830139160156,0.4453568458557129,0.0,6.082108084727322e-06,0.1983427201505492,4.761723039975118e-07,50.8587936004752
110,11.612217,11.240382194519043,0.48846912384033203,0.0,1.6650357853184137e-06,0.23860208494534163,4.761723039975118e-07,51.43938131726611
111,11.599064,11.240800857543945,0.486034095287323,0.0,1.1812161876225281e-06,0.23622914178176657,4.761723039975118e-07,52.01955800201152
112,11.611565,11.214042663574219,0.39195680618286133,0.0,1.5549902804618583e-06,0.15363013791306912,4.761723039975118e-07,52.5998662933049
113,11.602297,11.240382194519043,0.5006208419799805,0.0,-1.6326400783272768e-06,0.2506212274247446,4.7683452917880525e-07,53.18022417547148
114,11.607662,11.240382194519043,0.4524464011192322,0.0,-2.194381324942669e-08,0.20470774588574514,4.7683452917880525e-07,53.760458075160216
115,11.599799,11.211813926696777,0.41446131467819214,0.0,1.163338616713658e-06,0.1717781813647754,4.7683452917880525e-07,54.34060901079844
116,11.606404,11.211830139160156,0.420015811920166,0.0,2.302717428420004e-06,0.17641328226295627,4.7683452917880525e-07,54.920829564393145
117,11.58852,11.240382194519043,0.5177367329597473,0.0,-1.0481597691394716e-06,0.2680513246558327,4.7683452917880525e-07,55.500628595567406
118,11.592729,11.211813926696777,0.40384215116500854,0.0,-8.089528980368261e-07,0.1630884830575816,4.7683452917880525e-07,56.080118637457595
119,11.582155,11.214042663574219,0.4603826403617859,0.0,3.772979836962899e-07,0.21195217554648949,4.7683452917880525e-07,56.659479928510265
120,11.586209,11.240382194519043,0.4904223680496216,0.0,-3.1663059912224003e-06,0.2405140990833985,4.770000853260937e-07,57.23869531326013
121,11.576876,11.240382194519043,0.4851216673851013,0.0,-3.305763696436141e-06,0.23534303216650088,4.770000853260937e-07,57.81769421477857
122,11.592231,11.211813926696777,0.38603919744491577,0.0,-1.796512812776816e-06,0.14902626196391466,4.770000853260937e-07,58.396984939507796
123,11.584313,11.231881141662598,0.484169602394104,0.0,-5.580621109157433e-07,0.23442020388246476,4.770000853260937e-07,58.97642539052535
124,11.589114,11.240382194519043,0.46184176206588745,0.0,-2.277838171209014e-06,0.2132978131881238,4.770000853260937e-07,59.55575473361176
125,11.580074,11.211813926696777,0.41724348068237305,0.0,-1.1094493833618927e-06,0.1740921221719418,4.770000853260937e-07,60.13493292520728
126,11.587201,11.211830139160156,0.42067384719848633,0.0,-1.1781648870004354e-06,0.17696648571677542,4.770000853260937e-07,60.714181688429
127,11.569975,11.240382194519043,0.517693042755127,0.0,-2.8054679774689795e-06,0.2680060865170617,4.7683452917880525e-07,61.29303944669557
128,11.574849,11.240382194519043,0.4604939818382263,0.0,-3.02599411361034e-06,0.2120547073092247,4.7683452917880525e-07,61.871624932000685
129,11.568964,11.214042663574219,0.42268484830856323,0.0,-2.5263488157021446e-06,0.1786624809896331,4.7683452917880525e-07,62.450191815418634
130,11.578602,11.23817253112793,0.4704211354255676,0.0,-3.3872716568187398e-06,0.22129604465508024,0.0,63.02896040548231
131,11.567696,11.240382194519043,0.48052430152893066,0.0,-4.575935541499884e-06,0.23090360435986668,0.0,63.60754589078742
132,11.579737,11.211813926696777,0.38435012102127075,0.0,-3.966967193081453e-06,0.14772501552906547,0.0,64.18627490883537
133,11.568989,11.211830139160156,0.4447019100189209,0.0,-5.616696212093258e-06,0.19775978877447642,0.0,64.76499986846825
134,11.569801,11.240382194519043,0.4877697825431824,0.0,-2.512282212987063e-06,0.23791936076222342,4.78325560337221e-07,65.3434651912758
135,11.556507,11.240382194519043,0.48503804206848145,0.0,-6.411017101208779e-07,0.23526190225362598,4.78325560337221e-07,65.92151803032189
136,11.569077,11.214042663574219,0.39215075969696045,0.0,1.8091443172490943e-07,0.15378221833090322,4.78325560337221e-07,66.49970081228821
137,11.559751,11.23817253112793,0.4963635206222534,0.0,1.9571793672301997e-06,0.2463767446045182,4.78325560337221e-07,67.07793140660199
138,11.565226,11.240382194519043,0.45475268363952637,0.0,1.8155857950726789e-06,0.20680000327735115,4.78325560337221e-07,67.65604431729304
139,11.5571785,11.211813926696777,0.41524893045425415,0.0,2.219409795005733e-06,0.172431674243402,4.78325560337221e-07,68.23406610243877
140,11.564302,11.211830139160156,0.4197922945022583,0.0,9.741467048116832e-07,0.17622557052347076,4.78325560337221e-07,68.81217026618195
141,11.546804,11.240382194519043,0.5174680352210999,0.0,2.1046945019577446e-06,0.26777316747558544,4.7683452917880525e-07,69.38987512935955
142,11.551547,11.211813926696777,0.4030975103378296,0.0,3.358098994893328e-06,0.16248760284055663,4.7683452917880525e-07,69.96729781466243
143,11.541224,11.214042663574219,0.45987701416015625,0.0,4.872650561752483e-06,0.21148686815286055,4.7683452917880525e-07,70.54460749527576
144,11.545669,11.23817253112793,0.4851568937301636,0.0,5.606411504915887e-06,0.23537721153390123,4.7683452917880525e-07,71.12178770981302
145,11.536064,11.240382194519043,0.48762190341949463,0.0,2.757761742049983e-06,0.23777512069445095,4.7683452917880525e-07,71.69875454582753
146,11.551235,11.214042663574219,0.3911006450653076,0.0,8.842633824182768e-07,0.15295971457049973,4.7683452917880525e-07,72.27599581646294
147,11.543836,11.211830139160156,0.441325306892395,0.0,3.960840383915066e-07,0.19476802650366665,4.7683452917880525e-07,72.85339729846164
148,11.5474615,11.240382194519043,0.4844552278518677,0.0,-9.644491901115953e-07,0.23469686779300503,4.7683452917880525e-07,73.43069769667586
149,11.535459,11.211813926696777,0.42478013038635254,0.0,-1.7708345182439556e-06,0.18043815917104666,4.7683452917880525e-07,74.00767813308985
150,11.543789,11.214812278747559,0.42903655767440796,0.0,-9.577404767560727e-07,0.1840723678211056,4.7683452917880525e-07,74.58472627481976
151,11.5287485,11.23817253112793,0.5097169876098633,0.0,-3.641795869872422e-07,0.2598114074580735,4.7683452917880525e-07,75.16147495338477
