time,speed,target_speed,throttle,brake,steer,energy,curvature
0,0.23337243,11.57448959350586,1.0,0.0,-0.033747979097444036,1.0,0.0
1,0.23370592,3.289095878601074,0.0,1.0,-0.16682904670478277,0.1,0.05294914861900244
2,0.20143525,3.2223894596099854,1.0,0.0,-0.2920537923478327,1.0,0.05475871370110483
3,0.16076641,3.2223894596099854,1.0,0.0,-0.2920537923478327,1.0,0.05475871370110483
4,0.12242109,3.2223894596099854,1.0,0.0,-0.2920537923478327,1.0,0.05475871370110483
5,0.09031116,3.2223894596099854,1.0,0.0,-0.2920537923478327,1.0,0.05475871370110483
6,0.06511278,3.2223894596099854,1.0,0.0,-0.2920537923478327,1.0,0.05475871370110483
7,0.046137657,3.2223894596099854,1.0,0.0,-0.2920537923478327,1.0,0.05475871370110483
8,0.032249823,3.2223894596099854,1.0,0.0,-0.2920537923478327,1.0,0.05475871370110483
9,0.022295713,3.2223894596099854,1.0,0.0,-0.2920537923478327,1.0,0.05475871370110483
10,0.015275364,3.2223894596099854,1.0,0.0,-0.2920537923478327,1.0,0.05475871370110483
11,0.6447056,3.2223894596099854,1.0,0.0,-0.2886249477679765,1.0,0.05475871370110483
12,1.4281616,3.223558187484741,1.0,0.0,-0.27677747843077044,1.0,0.05475871370110483
13,2.078487,3.223558187484741,0.7355468273162842,0.0,-0.25773803600938344,0.5410291351750516,0.05475871370110483
14,2.5731134,3.223558187484741,0.399871289730072,0.0,-0.23504614880922847,0.1598970483503912,0.05475871370110483
15,2.9315479,3.2125768661499023,0.15707141160964966,0.0,-0.2102604301602397,0.024671428345047985,0.05475871370110483
16,3.14362,3.2125768661499023,0.10268771648406982,0.0,-0.18594080805164404,0.010544767116712706,0.05475871370110483
17,3.249828,3.2125768661499023,0.10215739905834198,0.0,-0.16271325989031274,0.01043613418236533,0.05475871370110483
18,3.301262,3.226656913757324,0.13328495621681213,0.0,-0.1419658766781758,0.017764879553717527,0.05475871370110483
19,3.3157604,3.225175619125366,0.13822625577449799,0.0,-0.12308250317903052,0.019106497785436938,0.05475871370110483
20,3.3198357,3.225175619125366,0.14558212459087372,0.0,-0.10686433283079057,0.021194155000392678,0.05475871370110483
21,3.311121,3.2002828121185303,0.11674697697162628,0.0,-0.23983493976215975,0.013629856632013437,0.054760447956849596
22,3.284134,3.2261693477630615,0.2383825033903122,0.0,-0.22384458244457253,0.056826217922632205,0.054760447956849596
23,3.263451,3.2261693477630615,0.22668810188770294,0.0,-0.19897009073167912,0.05138749553744959,0.054760447956849596
24,3.2701151,3.2002828121185303,0.1405549794435501,0.0,-0.17456580467609686,0.019755702246376794,0.054760447956849596
25,3.2692516,3.2114078998565674,0.1967936009168625,0.0,-0.15205254424019166,0.03872772136182534,0.054760447956849596
26,3.2713892,3.2114078998565674,0.18022973835468292,0.0,-0.1325512461048095,0.032482758587397464,0.054760447956849596
27,3.2688105,3.2114078998565674,0.18723785877227783,0.0,-0.11501913482820791,0.03505801575762746,0.054760447956849596
28,3.2708747,3.2114078998565674,0.18023334443569183,0.0,-0.10008559653359354,0.03248405844647473,0.054760447956849596
29,3.2683156,3.2125768661499023,0.1894751787185669,0.0,-0.08662519429617285,0.035900843350432865,0.054760447956849596
30,3.269557,3.2125768661499023,0.18297922611236572,0.0,-0.07529658357594421,0.03348139718868026,0.054760447956849596
31,3.2676413,3.226656913757324,0.21600723266601562,0.0,-0.06501367650198554,0.04665912456403021,0.054760447956849596
32,3.270942,3.226656913757324,0.19318874180316925,0.0,-0.056477321146138425,0.037321889959491594,0.054760447956849596
33,3.2737737,3.225175619125366,0.18762043118476868,0.0,-0.04863872404268954,0.03520142619795852,0.054760447956849596
34,3.2776015,3.225175619125366,0.1840156614780426,0.0,-0.04223540531848972,0.03386176366920157,0.054760447956849596
35,3.2781117,3.2261693477630615,0.18855078518390656,0.0,-0.21525031845604395,0.035551398593467676,0.05475762914401742
36,3.267978,3.2261693477630615,0.20812571048736572,0.0,-0.2080383469688217,0.043316311365870774,0.05475762914401742
37,3.253021,3.2002828121185303,0.17586910724639893,0.0,-0.18793864251068412,0.030929942883645367,0.05475762914401742
38,3.2590923,3.2114078998565674,0.19666779041290283,0.0,-0.16554596374554825,0.038678219785893475,0.05475762914401742
39,3.2598007,3.2114078998565674,0.18995538353919983,0.0,-0.1443366473568371,0.03608304773552451,0.05475762914401742
40,3.2664518,3.2114078998565674,0.17708615958690643,0.0,-0.12586508009455027,0.03135950791723929,0.05475762914401742
41,3.2659767,3.2114078998565674,0.1844148188829422,0.0,-0.10919689503678122,0.034008825423628375,0.05475762914401742
42,3.2685757,3.2125768661499023,0.18079958856105804,0.0,-0.09500725124797316,0.03268849122384787,0.05475762914401742
43,3.2663188,3.2125768661499023,0.18647466599941254,0.0,-0.08219949355302193,0.03477280105959246,0.05475762914401742
44,3.267379,3.226656913757324,0.21005378663539886,0.0,-0.07144195912493251,0.04412259327986967,0.05475762914401742
45,3.2675552,3.226656913757324,0.19647710025310516,0.0,-0.061660104781341894,0.03860325092386874,0.05475762914401742
46,3.2724302,3.225175619125366,0.18370454013347626,0.0,-0.053554190775079655,0.03374735806565199,0.05475762914401742
47,3.2739038,3.225175619125366,0.186869814991951,0.0,-0.046093449643291366,0.03492032775512599,0.05475762914401742
48,3.2760458,3.2261693477630615,0.18579764664173126,0.0,-0.23709217511893255,0.03452076549760563,0.0547599666677708
49,3.2629838,3.2261693477630615,0.212885782122612,0.0,-0.22940107411752986,0.04532035622995623,0.0547599666677708
50,3.2489572,3.2002828121185303,0.17586062848567963,0.0,-0.20876415942552254,0.030926960651378232,0.0547599666677708
51,3.2487223,3.2044243812561035,0.19625185430049896,0.0,-0.1838601219858875,0.03851479031638427,0.0547599666677708
52,3.2565606,3.2114078998565674,0.1899402141571045,0.0,-0.16095333873457202,0.03607728495404672,0.0547599666677708
53,3.2580152,3.2114078998565674,0.18765273690223694,0.0,-0.14007827720536611,0.03521354966690016,0.0547599666677708
54,3.2641597,3.2114078998565674,0.17655451595783234,0.0,-0.12208088759032373,0.031171497105104473,0.0547599666677708
55,3.2632165,3.2125768661499023,0.18667013943195343,0.0,-0.10587453251509624,0.034845740955544935,0.0547599666677708
56,3.2655928,3.2125768661499023,0.17954027652740479,0.0,-0.09210710885948234,0.03223471089553698,0.0547599666677708
57,3.2633746,3.2125768661499023,0.1860990971326828,0.0,-0.07967138891413558,0.03463287395359971,0.0547599666677708
58,3.2642486,3.226656913757324,0.21010489761829376,0.0,-0.06924234116171654,0.044144068003193704,0.0547599666677708
59,3.2643766,3.225175619125366,0.19348423182964325,0.0,-0.05974739900051045,0.037436147966707134,0.0547599666677708
60,3.268919,3.225175619125366,0.18579013645648956,0.0,-0.05189438400915434,0.03451797480452101,0.0547599666677708
61,3.2702146,3.273362874984741,0.28413158655166626,0.0,-0.24838460758780984,0.08073075847636701,0.053413321604134666
62,3.2674305,3.273362874984741,0.242837592959404,0.0,-0.24057368182860717,0.058970096554317175,0.053413321604134666
63,3.2618458,3.273362874984741,0.25128060579299927,0.0,-0.21872489826448277,0.0631419428476967,0.053413321604134666
64,3.2853186,3.273362874984741,0.1986905336380005,0.0,-0.19300173811312513,0.039477928157353404,0.053413321604134666
65,3.302836,3.273362874984741,0.18698130548000336,0.0,-0.16834873375643056,0.03496200859900633,0.053413321604134666
66,3.3197794,3.273362874984741,0.170379638671875,0.0,-0.14664382203558066,0.029029221273958683,0.053413321604134666
67,3.3237426,3.273362874984741,0.1791447401046753,0.0,-0.12708400084881302,0.032092837907171656,0.053413321604134666
68,3.3283007,3.273362874984741,0.17371712625026703,0.0,-0.11033454421218203,0.030177639952651214,0.053413321604134666
69,3.325345,3.273362874984741,0.18392665684223175,0.0,-0.09531005444854217,0.033829015097160076,0.053413321604134666
70,3.3254216,3.273362874984741,0.18055763840675354,0.0,-0.08262457899236643,0.03260106078702396,0.053413321604134666
71,3.3215804,3.273362874984741,0.18807540833950043,0.0,-0.07119629267187738,0.03537235922206983,0.053413321604134666
72,3.321161,3.273362874984741,0.18483400344848633,0.0,-0.061676708735973466,0.034163608830795056,0.053413321604134666
73,3.318387,3.273362874984741,0.18973751366138458,0.0,-0.05301971543446483,0.0360003240904041,0.053413321604134666
74,3.3184104,5.777730464935303,1.0,0.0,-0.21363321231926438,1.0,0.021493247178639676
75,3.3152313,5.804593563079834,1.0,0.0,-0.20436351651276483,1.0,0.021493247178639676
76,3.3685179,5.780722618103027,1.0,0.0,-0.18356748307988344,1.0,0.021493247178639676
77,3.521852,5.787036418914795,1.0,0.0,-0.16009786894013933,1.0,0.021493247178639676
78,3.772705,5.767752647399902,1.0,0.0,-0.13768268719430157,1.0,0.021493247178639676
79,4.065318,5.771398067474365,1.0,0.0,-0.11638227655927323,1.0,0.021493247178639676
80,4.378713,5.768661975860596,1.0,0.0,-0.09665978882148776,1.0,0.021493247178639676
81,4.703085,5.774778842926025,1.0,0.0,-0.07874275651399662,1.0,0.021493247178639676
82,5.0335183,5.774612903594971,0.7251327037811279,0.0,-0.06279848877454783,0.525817438092929,0.021493247178639676
83,5.344236,5.775356769561768,0.4379401206970215,0.0,-0.04922830401683953,0.19179154931612175,0.021493247178639676
84,5.433602,3.3213958740234375,0.0,1.0,-0.23353384115076445,0.1,0.051923881636260424
85,5.398469,3.3171069622039795,0.0,1.0,-0.2244110486305385,0.1,0.051923881636260424
86,5.3233137,3.3140079975128174,0.0,1.0,-0.19917120922010575,0.1,0.051923881636260424
87,5.0709586,3.3140079975128174,0.0,1.0,-0.16616741667264506,0.1,0.051923881636260424
88,4.007315,3.3103435039520264,0.6365163326263428,0.0,-0.13399902834902877,0.40515304170008903,0.051923881636260424
89,2.667779,3.335232973098755,1.0,0.0,-0.11430404108107055,1.0,0.051923881636260424
90,1.3353028,3.325618267059326,1.0,0.0,-0.10475174269809791,1.0,0.051923881636260424
91,1.6556078,3.319962739944458,1.0,0.0,-0.09854986412325839,1.0,0.051923881636260424
92,2.007505,3.335232973098755,1.0,0.0,-0.09102728091180025,1.0,0.051923881636260424
93,2.3858976,3.335232973098755,0.8774476051330566,0.0,-0.08300449996106941,0.7699142997537365,0.051923881636260424
94,2.7459369,3.312281608581543,0.4926908016204834,0.0,-0.07426797529580748,0.24274422600143453,0.051923881636260424
95,3.0607443,3.312281608581543,0.24732422828674316,0.0,-0.06575150563865698,0.06116927389763305,0.051923881636260424
96,3.270274,2.9992589950561523,0.0,0.48432794213294983,-0.27093051455135514,0.04843279421329499,0.06333947152563336
97,3.3390896,2.9992589950561523,0.0,0.10110625624656677,-0.261535859173108,0.010110625624656679,0.06333947152563336
98,3.3225355,2.9992589950561523,0.0,0.0007987022399902344,-0.23773112953702838,7.987022399902344e-05,0.06333947152563336
99,3.3122072,2.9992589950561523,0.0017390251159667969,0.0,-0.20958110987698586,3.0242083539633313e-06,0.06333947152563336
100,3.2741444,2.9992589950561523,0.06616193056106567,0.0,-0.18285784660529913,0.004377401055567276,0.06333947152563336
101,3.2351532,2.9992589950561523,0.10490205883979797,0.0,-0.15964100560674088,0.011004441948828436,0.06333947152563336
102,3.191402,2.9992589950561523,0.15245261788368225,0.0,-0.13900797166289677,0.023241800699588033,0.06333947152563336
103,3.1623275,2.9992589950561523,0.16603490710258484,0.0,-0.12151289665540803,0.027567590376563977,0.06333947152563336
104,3.137431,2.9992589950561523,0.18606284260749817,0.0,-0.10586025595281084,0.034619381399182636,0.06333947152563336
105,3.125592,2.9992589950561523,0.18421238660812378,0.0,-0.09264622034398393,0.03393420337986086,0.06333947152563336
106,3.1161504,2.9992589950561523,0.19067224860191345,0.0,-0.08065810919986013,0.036355906386909886,0.06333947152563336
107,3.1142933,2.9992589950561523,0.1843695342540741,0.0,-0.07060432026548623,0.0339921251610642,0.06333947152563336
108,3.1118941,2.9992589950561523,0.18674775958061218,0.0,-0.061357567920315,0.03487472570837813,0.06333947152563336
109,3.1131911,2.9992589950561523,0.18118488788604736,0.0,-0.053703094545717235,0.03282796359827955,0.06333947152563336
110,3.112599,2.9992589950561523,0.1830996572971344,0.0,-0.28381491523878444,0.03352548450232806,0.0633404298438537
111,3.1021588,2.9992589950561523,0.2028731405735016,0.0,-0.2768670447980305,0.041157511166155736,0.0633404298438537
112,3.0760157,2.9992589950561523,0.2443353831768036,0.0,-0.25557633159476345,0.059699779472155434,0.0633404298438537
113,3.0857105,2.9992589950561523,0.19837042689323425,0.0,-0.22805067665615636,0.039350826265803995,0.0633404298438537
114,3.0971594,2.9992589950561523,0.18467804789543152,0.0,-0.2010439497994661,0.0341059813744673,0.0633404298438537
115,3.1125085,2.9992589950561523,0.16486236453056335,0.0,-0.1769813449818686,0.027179599238608354,0.0633404298438537
116,3.1158786,2.9992589950561523,0.17288830876350403,0.0,-0.15507676841234083,0.029890367307104704,0.0633404298438537
117,3.1210778,2.9992589950561523,0.16525086760520935,0.0,-0.13609928490900736,0.02730784924427443,0.0633404298438537
118,3.118149,2.9992589950561523,0.17571309208869934,0.0,-0.11890606434861596,0.030875090731371735,0.0633404298438537
119,3.1187034,2.9992589950561523,0.17107850313186646,0.0,-0.10420246022423045,0.02926785423384004,0.0633404298438537
120,3.1145127,2.9992589950561523,0.17943793535232544,0.0,-0.09083047373588995,0.032197972643505324,0.0633404298438537
121,3.1141295,2.9992589950561523,0.17543917894363403,0.0,-0.07953352760696808,0.030778905508416443,0.0633404298438537
122,3.1107366,2.9992589950561523,0.18128451704978943,0.0,-0.0691821779946977,0.032864076121975394,0.0633404298438537
123,3.1105797,2.9992589950561523,0.17764872312545776,0.0,-0.06055452750550782,0.03155906882810555,0.0633404298438537
124,3.1082153,2.9992589950561523,0.18167585134506226,0.0,-0.30484560832303115,0.03300611496195316,0.0633406382181373
125,3.0961695,2.9992589950561523,0.2029186189174652,0.0,-0.29747492442202056,0.04117596590337147,0.0633406382181373
126,3.066669,2.9992589950561523,0.2495366632938385,0.0,-0.2756206852992563,0.06226854632782253,0.0633406382181373
127,3.0748606,2.9992589950561523,0.20327499508857727,0.0,-0.24643942306203237,0.04132072362826111,0.0633406382181373
128,3.0873103,2.9992589950561523,0.18612682819366455,0.0,-0.2175553055036482,0.03464319617343392,0.0633406382181373
129,3.1044433,2.9992589950561523,0.16378465294837952,0.0,-0.1917021319129173,0.026825412541421123,0.0633406382181373
130,3.1087198,2.9992589950561523,0.17181730270385742,0.0,-0.16815273938056163,0.02952118550842897,0.0633406382181373
131,3.1147556,2.9992589950561523,0.16344472765922546,0.0,-0.14768222074873544,0.02671417899959838,0.0633406382181373
132,3.1118715,2.9992589950561523,0.1746857762336731,0.0,-0.12914878962663057,0.030515120418360908,0.0633406382181373
133,3.112614,2.9992589950561523,0.16974997520446777,0.0,-0.113246595176042,0.028815054081917424,0.0633406382181373
134,3.108151,2.9992589950561523,0.17887386679649353,0.0,-0.09880861313347435,0.03199586022272971,0.0633406382181373
135,3.1077669,2.9992589950561523,0.174636572599411,0.0,-0.08655790500528043,0.030497932489269353,0.0633406382181373
136,3.1041095,2.9992589950561523,0.18104287981987,0.0,-0.07536244436643819,0.03277652433347189,0.0633406382181373
137,3.1039593,2.9992589950561523,0.17716246843338013,0.0,-0.32323129429387265,0.03138654022140841,0.06333992192575744
138,3.087451,2.9992589950561523,0.20958799123764038,0.0,-0.31374027439173313,0.04392712607102922,0.06333992192575744
139,3.062241,2.9992589950561523,0.24318453669548035,0.0,-0.2907922235269152,0.05913871888779543,0.06333992192575744
140,3.0629487,2.9992589950561523,0.21624094247817993,0.0,-0.25964832071265764,0.04676014520385152,0.06333992192575744
141,3.0842798,2.9992589950561523,0.1738613247871399,0.0,-0.22980308687840917,0.030227760256739344,0.06333992192575744
142,3.094659,2.9992589950561523,0.1739567518234253,0.0,-0.20219091203770295,0.03026095150495678,0.06333992192575744
143,3.106409,2.9992589950561523,0.1603003442287445,0.0,-0.17792113638091658,0.025696200359853982,0.06333992192575744
144,3.1063108,2.9992589950561523,0.1717115342617035,0.0,-0.15592334339413116,0.029484850998508172,0.06333992192575744
145,3.1091313,2.9992589950561523,0.1654229760169983,0.0,-0.13689678854534176,0.027364760994320392,0.06333992192575744
146,3.1047637,2.9992589950561523,0.17645111680030823,0.0,-0.11966448152413166,0.031134996620076016,0.06333992192575744
147,3.1046398,2.9992589950561523,0.17180457711219788,0.0,-0.1049284762926109,0.029516812716701146,0.06333992192575744
148,3.1002417,2.9992589950561523,0.17997190356254578,0.0,-0.09152827722666351,0.03238988607192628,0.06333992192575744
149,3.0999238,2.9992589950561523,0.17570608854293823,0.0,-0.08019318480431911,0.03087262955105885,0.06333992192575744
150,3.0967104,2.9992589950561523,0.18132781982421875,0.0,-0.06980307598431526,0.03287977824220434,0.06333992192575744
151,3.0967698,3.757453203201294,1.0,0.0,-0.28217147202520293,1.0,0.043469934550905545
152,3.092506,3.757453203201294,0.9514051675796509,0.0,-0.2726596827920971,0.9051717928972636,0.043469934550905545
153,3.1331341,3.757453203201294,0.8690065145492554,0.0,-0.24993025998477303,0.7551723223290452,0.043469934550905545
154,3.2750578,3.757453203201294,0.6281993389129639,0.0,-0.2211815976154076,0.39463440941068484,0.043469934550905545
155,3.4748075,3.757453203201294,0.37203681468963623,0.0,-0.19321987342106067,0.13841139148441073,0.043469934550905545
156,3.64925,3.757453203201294,0.22344249486923218,0.0,-0.1666736060568898,0.04992654851338685,0.043469934550905545
157,3.7698417,3.7660417556762695,0.1738598346710205,0.0,-0.14269769236301555,0.030227242111834585,0.043469934550905545
158,3.8323305,3.7660417556762695,0.16055390238761902,0.0,-0.12111813040110028,0.025777555571893096,0.043469934550905545
159,3.8645077,3.7596917152404785,0.14546409249305725,0.0,-0.10256381619564779,0.021159802204828715,0.043469934550905545
160,3.8695738,3.7596917152404785,0.17330962419509888,0.0,-0.08633255165534555,0.030036225838646402,0.043469934550905545
161,3.8673093,3.7445335388183594,0.15197452902793884,0.0,-0.07277499561603279,0.023096257473263826,0.043469934550905545
162,3.8552687,3.746772289276123,0.19288447499275208,0.0,-0.06101855501172878,0.0372044206932296,0.043469934550905545
163,3.84482,11.371261596679688,1.0,0.0,-0.21305276707112136,1.0,0.0011193168477642405
164,3.8310912,11.389225006103516,1.0,0.0,-0.2015143625017827,1.0,0.0011193168477642405
165,3.880803,11.389225006103516,1.0,0.0,-0.17774547543267186,1.0,0.0011193168477642405
166,4.0315285,11.39488410949707,1.0,0.0,-0.15167547553802135,1.0,0.0011193168477642405
167,4.269645,11.393096923828125,1.0,0.0,-0.12711690394039293,1.0,0.0011193168477642405
168,4.5499163,11.374356269836426,1.0,0.0,-0.10467149762247953,1.0,0.0011193168477642405
169,4.854632,11.35130500793457,1.0,0.0,-0.08455729103938,1.0,0.0011193168477642405
170,5.173128,11.388276100158691,1.0,0.0,-0.06690080873335813,1.0,0.0011193168477642405
171,5.4720798,11.385275840759277,1.0,0.0,-0.05191821147900098,1.0,0.0011193168477642405
172,5.5761557,11.60313892364502,1.0,0.0,-0.15468101507866513,1.0,9.532496947759093e-07
173,5.7078614,11.601581573486328,1.0,0.0,-0.14095715636964612,1.0,9.532496947759093e-07
174,6.043724,11.604057312011719,1.0,0.0,-0.11714861403242578,1.0,9.532496947759093e-07
175,6.2928696,11.599072456359863,1.0,0.0,-0.09129389993331032,1.0,9.532496947759093e-07
176,6.6297235,11.602360725402832,1.0,0.0,-0.06728309900642956,1.0,9.532496947759093e-07
177,6.9619117,11.59739875793457,1.0,0.0,-0.04674783313523653,1.0,9.532496947759093e-07
178,7.3484325,11.598994255065918,1.0,0.0,-0.10936805401800367,1.0,9.532496947759093e-07
179,7.670076,11.599949836730957,1.0,0.0,-0.0926325431213962,1.0,9.532496947759093e-07
180,8.05659,11.60919189453125,1.0,0.0,-0.06967951675803567,1.0,9.532496947759093e-07
181,8.404016,11.564221382141113,1.0,0.0,-0.04676571131674947,1.0,9.532496947759093e-07
