time,speed,target_speed,throttle,brake,steer,energy,curvature,distance_traveled
0,0.23337243,11.241949081420898,1.0,0.0,-0.033747979097444036,1.0,0.0,0.0
1,0.23370592,3.4408371448516846,0.0,1.0,-0.16682904670478277,0.1,0.05294914861900244,0.0
2,0.20143525,3.374640703201294,1.0,0.0,-0.2920537923478327,1.0,0.05475871370110483,0.0
3,0.16076641,3.374640703201294,1.0,0.0,-0.2920537923478327,1.0,0.05475871370110483,0.0
4,0.12242109,3.3848276138305664,1.0,0.0,-0.2920537923478327,1.0,0.05475871370110483,0.0
5,0.09031116,3.3848276138305664,1.0,0.0,-0.2920537923478327,1.0,0.05475871370110483,0.0
6,0.06511278,3.3848276138305664,1.0,0.0,-0.2920537923478327,1.0,0.05475871370110483,0.0
7,0.046137657,3.3848276138305664,1.0,0.0,-0.2920537923478327,1.0,0.05475871370110483,0.0
8,0.032249823,3.3848276138305664,1.0,0.0,-0.2920537923478327,1.0,0.05475871370110483,0.0
9,0.022295713,3.3848276138305664,1.0,0.0,-0.2920537923478327,1.0,0.05475871370110483,0.0
10,0.015275364,3.3848276138305664,1.0,0.0,-0.2920537923478327,1.0,0.05475871370110483,0.0
11,0.6447056,3.374640703201294,1.0,0.0,-0.2886249477679765,1.0,0.05475871370110483,0.013231550216338131
12,1.4281616,3.3776731491088867,1.0,0.0,-0.27677747843077044,1.0,0.05475871370110483,0.06859215686709705
13,2.078487,3.3656558990478516,0.8741734027862549,0.0,-0.25773803600938344,0.7641791381388998,0.05475871370110483,0.16040719333765385
14,2.5817297,3.3568146228790283,0.5162233114242554,0.0,-0.2350147457847316,0.26648650725782375,0.05475871370110483,0.2795970562567017
15,2.9735591,3.3742246627807617,0.28147178888320923,0.0,-0.2100536152269099,0.0792263679371139,0.05475871370110483,0.4204539537544858
16,3.2374187,3.3742246627807617,0.12885624170303345,0.0,-0.18515395888992012,0.016603931025830576,0.05475871370110483,0.577097586479011
17,3.3765473,3.3742246627807617,0.11444675922393799,0.0,-0.16130409577119706,0.013098060696862035,0.05475871370110483,0.7430519286640714
18,3.4479525,3.3742246627807617,0.11039647459983826,0.0,-0.1398978354002277,0.012187381604072733,0.05475871370110483,0.9138171609340399
19,3.4715362,3.3742246627807617,0.1341477632522583,0.0,-0.12047289376232853,0.017995622385583943,0.05475871370110483,1.0866948507297511
20,3.4775147,3.3742246627807617,0.14525780081748962,0.0,-0.10381107287684205,0.02109982869833349,0.05475871370110483,1.260233960472315
21,3.4684527,3.3742246627807617,0.1688893735408783,0.0,-0.23737557611681653,0.028523620495030322,0.054760447956849596,1.4336294962884724
22,3.4442084,3.3742246627807617,0.20796599984169006,0.0,-0.22109683745817077,0.04324985709015383,0.054760447956849596,1.6060937779145559
23,3.427358,3.3742246627807617,0.21715697646141052,0.0,-0.19552284024399105,0.047157152425861604,0.054760447956849596,1.7772149061743865
24,3.4328713,3.3742246627807617,0.1889863908290863,0.0,-0.17035977175218742,0.035715855918604156,0.054760447956849596,1.948263831097194
25,3.433691,3.3784220218658447,0.2009788453578949,0.0,-0.1472962670725042,0.04039249628139263,0.054760447956849596,2.119557165839785
26,3.4400437,3.3784220218658447,0.18458771705627441,0.0,-0.12738533369787675,0.03407262528804722,0.054760447956849596,2.2911533388119376
27,3.4395928,3.3784220218658447,0.19153624773025513,0.0,-0.10964290319584814,0.03668613419458566,0.054760447956849596,2.4629263541432227
28,3.4425614,3.3784220218658447,0.18482759594917297,0.0,-0.0945973626554763,0.03416124022435074,0.054760447956849596,2.6348340611966816
29,3.4402401,3.3742246627807617,0.1837138533592224,0.0,-0.0811812662624508,0.033750779916093876,0.054760447956849596,2.806773332884303
30,3.4404,3.3742246627807617,0.18493959307670593,0.0,-0.06994983482855764,0.03420265308737758,0.054760447956849596,2.9787091414813927
31,3.4365783,3.3742246627807617,0.1924307942390442,0.0,-0.05987351208396688,0.03702961057146936,0.054760447956849596,3.1505423240746313
32,3.4358552,3.3742246627807617,0.18974727392196655,0.0,-0.051562480848051706,0.03600402796081781,0.054760447956849596,3.322295575815426
33,3.4332485,3.3742246627807617,0.19394227862358093,0.0,-0.04402455383149451,0.0376136074377067,0.054760447956849596,3.493973750389965
34,3.4331577,3.3742246627807617,0.1912226676940918,0.0,-0.21620918420505328,0.03656610864004506,0.05475762914401742,3.6656117761624327
35,3.41851,3.3742246627807617,0.2202058583498001,0.0,-0.2080620543509218,0.04849062005157223,0.05475762914401742,3.836822203627682
36,3.4075773,3.3742246627807617,0.22725673019886017,0.0,-0.18745216846913043,0.05164562142067752,0.05475762914401742,4.006962986231168
37,3.4117682,3.3742246627807617,0.2077544927597046,0.0,-0.16371567756181893,0.04316192926184215,0.05475762914401742,4.177061781830318
38,3.4253402,3.3784220218658447,0.19296160340309143,0.0,-0.14212770746077677,0.037234180387891946,0.05475762914401742,4.347753148256614
39,3.4304779,3.3784220218658447,0.1918005794286728,0.0,-0.1226142872975968,0.03678746226917462,0.05475762914401742,4.5189365960458
40,3.437866,3.3784220218658447,0.18186481297016144,0.0,-0.10591511664207867,0.0330748101966718,0.05475762914401742,4.690511721963839
41,3.4376273,3.3742246627807617,0.18101850152015686,0.0,-0.09100705563761062,0.03276769789260303,0.05475762914401742,4.862259567770127
42,3.4389052,3.3742246627807617,0.18209795653820038,0.0,-0.07845941409678361,0.033159665775388314,0.05475762914401742,5.034089379148934
43,3.4350233,3.3742246627807617,0.19083575904369354,0.0,-0.06723040751249798,0.03641828692978266,0.05475762914401742,5.205832378085086
44,3.4341936,3.3742246627807617,0.18831339478492737,0.0,-0.05791059730188377,0.03546193465542391,0.05475762914401742,5.377506442305449
45,3.4310777,3.3742246627807617,0.19343121349811554,0.0,-0.04949822240649095,0.037415634355353555,0.05475762914401742,5.549066028553788
46,3.430756,3.3742246627807617,0.19067592918872833,0.0,-0.23729721627467093,0.03635730997198494,0.0547599666677708,5.72057954474037
47,3.4153874,3.3742246627807617,0.22088590264320374,0.0,-0.22880527039860035,0.04879058198650288,0.0547599666677708,5.891642349910803
48,3.400593,3.3742246627807617,0.23497405648231506,0.0,-0.20700848367583852,0.05521280721975419,0.0547599666677708,6.061455703391176
49,3.4049327,3.3742246627807617,0.21134677529335022,0.0,-0.18116648686201078,0.04466745942689787,0.0547599666677708,6.231135379622934
50,3.4206097,3.3742246627807617,0.18410058319568634,0.0,-0.15746219664806793,0.03389302473299183,0.0547599666677708,6.401483961220117
51,3.426274,3.3784220218658447,0.19660432636737823,0.0,-0.13600947219721204,0.03865326114637058,0.0547599666677708,6.5723939104160705
52,3.434211,3.3784220218658447,0.1819184571504593,0.0,-0.11757896982264386,0.03309432505200349,0.0547599666677708,6.7437287990915555
53,3.434397,3.3784220218658447,0.18920360505580902,0.0,-0.10114229005619799,0.03579800416611456,0.0547599666677708,6.91528547900724
54,3.437031,3.3742246627807617,0.17541272938251495,0.0,-0.087245568034669,0.030769625629423425,0.0547599666677708,7.0869610441934805
55,3.4337626,3.3742246627807617,0.18848340213298798,0.0,-0.07483226401251601,0.035525992879625656,0.0547599666677708,7.258621774511815
56,3.4328475,3.3742246627807617,0.18675191700458527,0.0,-0.06447871280013373,0.034876278504887503,0.0547599666677708,7.430210877671984
57,3.4291575,3.3742246627807617,0.19294221699237823,0.0,-0.05516668430031655,0.03722669909793397,0.0547599666677708,7.601678761828094
58,3.428563,3.3742246627807617,0.19016925990581512,0.0,-0.04751485191483933,0.036164347413125464,0.0547599666677708,7.773079159478619
59,3.4262881,3.4171783924102783,0.27998679876327515,0.0,-0.2455155757699087,0.07839260748170673,0.053413321604134666,7.944407655148441
60,3.4206362,3.3993706703186035,0.21034018695354462,0.0,-0.23799692083469903,0.0442429942476521,0.053413321604134666,8.115466295737583
61,3.4084356,3.3993706703186035,0.2468518316745758,0.0,-0.21585083427446844,0.06093582680109311,0.053413321604134666,8.285700683609136
62,3.4249196,3.3993706703186035,0.20155544579029083,0.0,-0.18946563699107735,0.040624597727722866,0.053413321604134666,8.45610167493956
63,3.4373922,3.3993706703186035,0.19290409982204437,0.0,-0.16427769450254048,0.03721199172815326,0.053413321604134666,8.627324988961714
64,3.451449,3.4035680294036865,0.18541868031024933,0.0,-0.14219361769288114,0.03438008700799444,0.053413321604134666,8.799313708541135
65,3.4545858,3.4035680294036865,0.18874917924404144,0.0,-0.1224516105359517,0.035626252665299285,0.053413321604134666,8.971739321739138
66,3.4598472,3.4035680294036865,0.18108180165290833,0.0,-0.10561842544858645,0.03279061888986323,0.053413321604134666,9.144447028224024
67,3.45789,3.4035680294036865,0.1899859756231308,0.0,-0.09063997358462243,0.03609467093347285,0.053413321604134666,9.317245828446
68,3.4587777,3.4035680294036865,0.1859774887561798,0.0,-0.0780448558873506,0.03458762632405499,0.053413321604134666,9.49006050315273
69,3.455596,3.4035680294036865,0.19296836853027344,0.0,-0.06679378853375832,0.037236791253235424,0.053413321604134666,9.662821283523304
70,3.4555311,3.4035680294036865,0.1896565705537796,0.0,-0.05746006049981062,0.03596961475422078,0.053413321604134666,9.835546387489504
71,3.4530218,5.794954776763916,1.0,0.0,-0.2153667815136898,1.0,0.021493247178639676,10.008196858825315
72,3.4513364,5.794954776763916,1.0,0.0,-0.20555273307299027,1.0,0.021493247178639676,10.18062290665868
73,3.5002244,5.794954776763916,1.0,0.0,-0.18337173916198737,1.0,0.021493247178639676,10.353944165156317
74,3.6576264,5.794954776763916,1.0,0.0,-0.15930419122428,1.0,0.021493247178639676,10.532915514253888
75,3.9030433,5.794954776763916,1.0,0.0,-0.13599337565713696,1.0,0.021493247178639676,10.722647147856904
76,4.19288,5.794954776763916,1.0,0.0,-0.11420334007208516,1.0,0.021493247178639676,10.926218301283312
77,4.503505,5.789719104766846,1.0,0.0,-0.09419919484469001,1.0,0.021493247178639676,11.144988819818673
78,4.8261137,5.789719104766846,0.9568588733673096,0.0,-0.07618156526241966,0.915578903541757,0.021493247178639676,11.379724213985224
79,5.1507163,5.789719104766846,0.6334571242332458,0.0,-0.06032344070301595,0.40126792824185387,0.021493247178639676,11.630756204315006
80,5.4231834,5.789719104766846,0.414958119392395,0.0,-0.046919725692907574,0.17219024084967316,0.021493247178639676,11.897243052427804
81,5.452928,3.4544808864593506,0.0,1.0,-0.23175217295848977,0.1,0.051923881636260424,12.168994061073999
82,5.417434,3.4544808864593506,0.0,1.0,-0.22289785126097472,0.1,0.051923881636260424,12.44067992551207
83,5.343634,3.4544808864593506,0.0,1.0,-0.1979003629533766,0.1,0.051923881636260424,12.709031292043566
84,5.091891,3.4544808864593506,0.0,1.0,-0.16504328114252323,0.1,0.051923881636260424,12.970457517428226
85,4.0278835,3.4544808864593506,0.771187424659729,0.0,-0.13295320745724917,0.5947300439533052,0.051923881636260424,13.197857580986591
86,2.6882155,3.4544808864593506,1.0,0.0,-0.11325754070561246,1.0,0.051923881636260424,13.358381823662478
87,1.3555641,3.452514886856079,1.0,0.0,-0.10365706095057656,1.0,0.051923881636260424,13.452270568172365
88,1.6762873,3.450059413909912,1.0,0.0,-0.09737647240903234,1.0,0.051923881636260424,13.528019825158642
89,2.0553994,3.4478867053985596,1.0,0.0,-0.09016293993384562,1.0,0.051923881636260424,13.622360731728751
90,2.3911192,3.454049587249756,1.0,0.0,-0.08207458803137736,1.0,0.051923881636260424,13.73517167726492
91,2.758121,3.4544808864593506,0.6493160724639893,0.0,-0.07357505866973095,0.42161136196006055,0.051923881636260424,13.865796638658274
92,3.1077251,3.454049587249756,0.3175472021102905,0.0,-0.06483581769134833,0.1008362255680737,0.051923881636260424,14.014549723487217
93,3.3888369,3.0920488834381104,0.0,0.6201261281967163,-0.27071865493296554,0.06201261281967163,0.06333947152563336,14.178953061376095
94,3.489325,3.0920488834381104,0.0,0.1799764633178711,-0.26073603352566677,0.01799764633178711,0.06333947152563336,14.352103133221169
95,3.4849432,3.0920488834381104,0.0,0.07268896698951721,-0.2361728782056565,0.0072688966989517215,0.06333947152563336,14.526139802842682
96,3.4641469,3.0920488834381104,0.0,0.03733876347541809,-0.20689179616837214,0.0037338763475418093,0.06333947152563336,14.699254932460882
97,3.4299564,3.092987298965454,0.010437756776809692,0.0,-0.1796182357996752,0.00010894676653183666,0.06333947152563336,14.870969783787128
98,3.3792212,3.092987298965454,0.07534822821617126,0.0,-0.15574034381226803,0.0056773554953162275,0.06333947152563336,15.040547140417809
99,3.3323274,3.092987298965454,0.11720395088195801,0.0,-0.13505038529362584,0.013736766102340425,0.06333947152563336,15.207742863811745
100,3.2848513,3.0920488834381104,0.16242137551307678,0.0,-0.11726073323126822,0.026380703223559898,0.06333947152563336,15.3726467809418
101,3.2560039,3.092987298965454,0.17464038729667664,0.0,-0.10185305942137002,0.030499264875133214,0.06333947152563336,15.535784058200848
102,3.2302284,3.092987298965454,0.1957191824913025,0.0,-0.08853565364796102,0.03830599839506377,0.06333947152563336,15.697634275026108
103,3.2216935,3.092987298965454,0.18637001514434814,0.0,-0.07693145405321473,0.03473378254490456,0.06333947152563336,15.858759423631493
104,3.2112498,3.092987298965454,0.19813117384910583,0.0,-0.06685556608548977,0.0392559620508246,0.06333947152563336,16.019453579327376
105,3.2129865,3.092987298965454,0.18361422419548035,0.0,-0.0580420308731876,0.03371418332690812,0.06333947152563336,16.179998650589692
106,3.2084107,3.0920488834381104,0.19204366207122803,0.0,-0.28571529119744926,0.036880768141728026,0.0633404298438537,16.34047627971827
107,3.1994512,3.0920488834381104,0.20578840374946594,0.0,-0.27774427901551263,0.04234886711775321,0.0633404298438537,16.500593917654328
108,3.1726224,3.0920488834381104,0.2500835359096527,0.0,-0.2557263206796683,0.06254177493307456,0.0633404298438537,16.659301429511473
109,3.182516,3.0920488834381104,0.20301514863967896,0.0,-0.22708527896439062,0.04121515057719094,0.0633404298438537,16.817552151824277
110,3.1948612,3.0920488834381104,0.18770459294319153,0.0,-0.19967647151936657,0.03523301421196923,0.0633404298438537,16.976520347486748
111,3.2107372,3.0920488834381104,0.16770410537719727,0.0,-0.1748283653301277,0.028124666960366085,0.0633404298438537,17.13631290973191
112,3.2137995,3.0920488834381104,0.1768469214439392,0.0,-0.15281703741801794,0.031274833624198806,0.0633404298438537,17.296616046217167
113,3.2199242,3.0920488834381104,0.16702032089233398,0.0,-0.13333430187793535,0.027895787590978216,0.0633404298438537,17.457227813719353
114,3.2156298,3.0920488834381104,0.18111595511436462,0.0,-0.11625559633751739,0.03280298919698854,0.0633404298438537,17.617896785102204
115,3.2178404,3.0920488834381104,0.17177137732505798,0.0,-0.10122838679777231,0.029505406068147444,0.0633404298438537,17.77857893145844
116,3.2115843,3.092987298965454,0.1877780258655548,0.0,-0.08811158520959679,0.03526058699796497,0.0633404298438537,17.939163487881565
117,3.213692,3.092987298965454,0.17576473951339722,0.0,-0.07660518507893867,0.030893243656212377,0.0633404298438537,18.099704899510005
118,3.2079978,3.092987298965454,0.18868562579154968,0.0,-0.06658268839969994,0.03560226538034872,0.0633404298438537,18.260151255040387
119,3.2109,3.092987298965454,0.17659735679626465,0.0,-0.05780812074368994,0.0311866264274272,0.0633404298438537,18.42057751385795
120,3.205673,3.0920488834381104,0.18750885128974915,0.0,-0.3034558134706904,0.03515956931200126,0.0633406382181373,18.58093102652921
121,3.1954436,3.0920488834381104,0.20316192507743835,0.0,-0.29601338315325526,0.041274767801170675,0.0633406382181373,18.740877320803428
122,3.164736,3.0920488834381104,0.2539843022823334,0.0,-0.2742332651488752,0.0645080258058437,0.0633406382181373,18.89928738214967
123,3.1714706,3.0920488834381104,0.2094103991985321,0.0,-0.24422057573180328,0.043852715292488575,0.0633406382181373,19.05695193668447
124,3.1847036,3.0920488834381104,0.18921583890914917,0.0,-0.21506028839131536,0.03580263369409309,0.0633406382181373,19.215309206183118
125,3.2019897,3.0920488834381104,0.16732695698738098,0.0,-0.18850113412066397,0.027998310534656845,0.0633406382181373,19.374570496348106
126,3.206262,3.0920488834381104,0.17549702525138855,0.0,-0.16491889614315122,0.03079920587208651,0.0633406382181373,19.534420336095618
127,3.2129855,3.0920488834381104,0.16571801900863647,0.0,-0.14401422195871455,0.0274624618241468,0.0633406382181373,19.6946315333335
128,3.2090046,3.0920488834381104,0.17981839179992676,0.0,-0.1256659458044829,0.03233465402951197,0.0633406382181373,19.854932581653554
129,3.211219,3.092987298965454,0.17269432544708252,0.0,-0.10950423284546754,0.029823330041622853,0.0633406382181373,20.01526276460814
130,3.2050567,3.092987298965454,0.1857348084449768,0.0,-0.09537958434276411,0.03449741906809223,0.0633406382181373,20.175499027897448
131,3.2071602,3.092987298965454,0.17479440569877625,0.0,-0.08297629644619989,0.03055308426358838,0.0633406382181373,20.335698063637963
132,3.2012982,3.092987298965454,0.18808040022850037,0.0,-0.07216317237326655,0.03537423695011288,0.0633406382181373,20.495801930079146
133,3.204022,3.0920488834381104,0.1743343472480774,0.0,-0.32287167152809315,0.03039246463041323,0.06333992192575744,20.655884081817874
134,3.1852977,3.0920488834381104,0.21497860550880432,0.0,-0.31393306783040925,0.04621580082651011,0.06333992192575744,20.815448340921055
135,3.1583798,3.0920488834381104,0.24975860118865967,0.0,-0.2905717339066796,0.06237935886771595,0.06333992192575744,20.97341980655219
136,3.1594872,3.0920488834381104,0.22028857469558716,0.0,-0.25905242399460693,0.04852705614141328,0.06333992192575744,21.130535732113735
137,3.1805701,3.0920488834381104,0.17878767848014832,0.0,-0.22820035791963408,0.03196503397632089,0.06333992192575744,21.2884426531088
138,3.191997,3.0920488834381104,0.17651695013046265,0.0,-0.20025691346886892,0.031158233683360237,0.06333992192575744,21.447277819060933
139,3.2040372,3.0920488834381104,0.16330364346504211,0.0,-0.17526314634550752,0.026668079968957592,0.06333992192575744,21.6068047606159
140,3.2035947,3.0920488834381104,0.1756710708141327,0.0,-0.1532155220952573,0.030860325120984022,0.06333992192575744,21.7666590181325
141,3.2073038,3.0920488834381104,0.1672341227531433,0.0,-0.13373332667954294,0.027967251813013405,0.06333992192575744,21.92668264299708
142,3.2015643,3.0920488834381104,0.18187451362609863,0.0,-0.1166625591606432,0.03307833870672994,0.06333992192575744,22.08667377400108
143,3.2031329,3.092987298965454,0.17432406544685364,0.0,-0.10164187228078933,0.03038887979391891,0.06333992192575744,22.246632296899904
144,3.1968212,3.092987298965454,0.18705832958221436,0.0,-0.0885198354699317,0.03499081866608833,0.06333992192575744,22.406477972209903
145,3.1991627,3.092987298965454,0.17553278803825378,0.0,-0.07700464783477953,0.03081175967648253,0.06333992192575744,22.56628993018826
146,3.1935754,3.895876407623291,1.0,0.0,-0.28668911094015287,1.0,0.043469934550905545,22.726014389272486
147,3.1922884,3.895876407623291,0.995954155921936,0.0,-0.2762430140509565,0.9919246806981761,0.043469934550905545,22.885465913226835
148,3.2255685,3.895876407623291,0.9314584732055664,0.0,-0.25201128359194674,0.8676148873064449,0.043469934550905545,23.045257541528976
149,3.3756151,3.895251989364624,0.6659947633743286,0.0,-0.22210385567948066,0.44354902484202796,0.043469934550905545,23.210029155953322
150,3.5852697,3.8641486167907715,0.3365442752838135,0.0,-0.1926951117968825,0.11326204922630723,0.043469934550905545,23.384519043643653
151,3.7792292,3.8641486167907715,0.18980786204338074,0.0,-0.16511932968322995,0.036027024493479054,0.043469934550905545,23.569461341621277
152,3.895271,3.8641486167907715,0.15152791142463684,0.0,-0.14020144268539997,0.022960707940712588,0.043469934550905545,23.76186806014975
153,3.9550428,3.8641486167907715,0.14757177233695984,0.0,-0.11826889600374148,0.021777427990671505,0.043469934550905545,23.95834176513093
